Time (s), Va, Vb, Vc, Ia, Ib, Ic, In
0,10499.88086,-1730.0625,-8824.276367,160.9475708,15.65271282,-145.0049896,24.05879974
6.5E-05,10590.14063,-1991.765381,-8643.25293,163.4114227,8.768417358,-141.8889465,22.75440598
0.00013,10669.81152,-2255.485107,-8455.673828,166.3825378,1.521790981,-138.7004242,21.37754631
0.000195,10741.41406,-2519.205078,-8262.548828,169.6435242,-6.014699936,-135.3669739,20.07315445
0.00026,10800.41016,-2783.428955,-8063.876465,172.3972321,-13.40625858,-131.3813324,19.34849167
0.000325,10849.32227,-3047.653076,-7857.640137,174.861084,-20.58041763,-126.9608917,19.05862617
0.00039,10891.1748,-3311.372803,-7647.874512,176.6727448,-26.74005127,-122.1781158,19.27602577
0.000455,10927.48047,-3575.092773,-7431.049316,178.5568695,-32.6098175,-117.177948,20.07315445
0.00052,10958.74316,-3838.8125,-7209.182129,180.6583862,-37.97232056,-112.1777725,21.37754631
0.000585,10983.45117,-4100.515137,-6981.263672,183.1947021,-43.62469101,-107.3225327,23.26166916
0.00065,11002.6123,-4359.192871,-6749.311035,186.2382965,-49.13212585,-102.3223648,25.4356575
0.000715,11016.73145,-4610.810547,-6510.299316,189.2818756,-54.4221611,-97.61205292,27.68211174
0.00078,11028.3291,-4859.40332,-6268.766113,191.8181915,-59.27740097,-92.90174866,29.92856598
0.000845,11036.39648,-5102.44873,-6022.694824,193.9921875,-63.77030945,-88.40883636,31.81268883
0.00091,11044.46484,-5342.973633,-5771.581055,195.9487762,-68.33568573,-83.84346771,33.55187988
0.000975,11048.49902,-5578.455566,-5516.433594,197.5430298,-73.04598999,-79.35055542,34.71133804
0.00104,11050.01172,-5809.903809,-5257.756348,198.8474274,-78.04616547,-74.71271515,35.43600082
0.001105,11046.48145,-6034.796875,-4997.565918,199.9344177,-83.11880493,-70.29227448,35.65340042
0.00117,11038.41406,-6254.647461,-4733.846191,200.5141449,-88.33637238,-66.0892334,35.29106903
0.001235,11024.79883,-6472.480957,-4470.126465,200.5866089,-93.26407623,-62.0311203,34.34900665
0.0013,11008.15918,-6685.776367,-4202.876953,200.3692169,-98.26425171,-58.04547501,32.8272171
0.001365,10988.49414,-6899.071777,-3936.131592,200.0793457,-103.7716904,-54.27722931,30.65322876
0.00143,10965.29883,-7111.358398,-3668.37793,199.7894897,-109.3515854,-50.72638321,28.04444313
0.001495,10935.54785,-7322.132813,-3400.119873,199.2097473,-115.6561508,-46.95813751,24.92839432
0.00156,10901.76367,-7529.881348,-3130.853516,198.3401642,-121.6708527,-43.11742401,21.6674118
0.001625,10862.93652,-7736.621582,-2862.595459,196.6009674,-127.6130905,-39.20424652,18.04409981
0.00169,10817.55469,-7942.353516,-2593.833008,194.7168427,-133.1205292,-35.36353683,14.34832001
0.001755,10766.12207,-8146.067871,-2326.079346,192.6153259,-138.410553,-31.66775703,10.50760841
0.00182,10706.62109,-8349.783203,-2055.804443,190.296402,-143.6281281,-27.97197723,6.521964073
0.001885,10637.03516,-8548.958984,-1786.033569,187.977478,-148.7732391,-24.20373154,2.753717899
0.00195,10556.35645,-8744.606445,-1518.279907,185.6585693,-154.0632782,-20.29055405,-0.797128975
0.002015,10466.09668,-8932.689453,-1249.517578,183.3396454,-159.063446,-16.59477425,-4.710307121
0.00208,10364.74316,-9116.234375,-983.2765503,181.0931854,-163.7737579,-12.9714613,-7.971289158
0.002145,10253.80957,-9294.736328,-718.5482788,179.0641327,-168.2666626,-9.348147392,-11.08733845
0.00221,10131.78223,-9467.188477,-452.8114624,177.2524719,-173.1219025,-5.869767189,-14.13092136
0.002275,10000.1748,-9633.084961,-187.0746613,175.5857544,-177.7597351,-2.029055119,-16.59477425
0.00234,9857.977539,-9790.40918,77.65363312,173.7740936,-182.325119,2.173988104,-18.76876259
0.002405,9711.242188,-9940.169922,342.8861694,171.6725769,-186.8180237,6.81182909,-20.50795174
0.00247,9558.960938,-10081.8623,605.0932617,169.4261169,-190.9485931,11.81200027,-21.8123455
0.002535,9400.124023,-10214.98242,866.7960815,167.2521362,-194.6443787,16.95710564,-22.39207458
0.0026,9235.236328,-10339.53125,1130.011719,165.0781403,-198.2676849,21.9572773,-23.11673737
0.002665,9064.801758,-10455.50781,1391.714478,163.1215515,-201.8185425,26.95744896,-23.55153465
0.00273,8889.828125,-10561.39844,1655.434326,161.1649628,-205.5143127,32.10255432,-23.84140015
0.002795,8711.326172,-10655.18848,1918.14563,158.9185181,-209.1376343,37.53752518,-23.98633194
0.00286,8525.763672,-10737.88379,2181.865479,156.6720581,-212.9783478,43.18989182,-24.42113113
0.002925,8337.680664,-10809.4873,2443.063965,153.990799,-216.8190613,48.98719406,-25.00086021
0.00299,8145.563965,-10869.99609,2705.775391,151.2370911,-220.7322388,54.78449249,-25.5081234
0.003055,7947.899902,-10920.4209,2968.486816,148.4833679,-224.8628082,60.43686295,-26.74005127
0.00312,7741.664063,-10961.26465,3231.702393,145.4397888,-228.4861298,65.6544342,-27.89951134
0.003185,7528.368652,-10993.53613,3494.917969,141.8164673,-231.8920441,70.87200165,-29.3488369
0.00325,7309.526855,-11019.75684,3759.64624,137.6858978,-234.9356232,75.65477753,-31.37789154
0.003315,7084.129395,-11043.45605,4021.853271,133.3379211,-238.3415375,80.43755341,-33.76927948
0.00338,6857.219238,-11062.11328,4281.539063,129.3522797,-241.8199158,84.78552246,-36.66792679
0.003445,6623.754395,-11075.22363,4537.695313,125.8738937,-245.3707581,88.55377197,-39.63904572
0.00351,6385.750977,-11085.30859,4790.321777,122.685379,-248.8491364,91.66982269,-42.82756042
0.003575,6143.209473,-11092.36816,5039.418457,119.5693283,-251.6753235,94.4960022,-45.79867554
0.00364,5897.138184,-11096.90625,5285.489746,116.018486,-254.2116394,97.32218933,-48.55239487
0.003705,5649.049805,-11100.94043,5526.01416,112.2502365,-256.3131714,100.0034409,-51.1611824
0.00377,5398.44043,-11101.94824,5760.992188,108.5544586,-258.1248169,102.974556,-53.48010254
0.003835,5143.796875,-11099.93164,5990.42334,105.0036163,-259.5741577,106.0906067,-55.00189209
0.0039,4887.136719,-11093.88086,6214.812012,101.3078308,-260.87854,109.424057,-56.37874985
0.003965,4627.450684,-11085.8125,6436.175293,97.68452454,-261.8206177,112.9024353,-57.39328003
0.00403,4363.730957,-11074.71973,6654.513184,93.77133942,-262.5452576,116.5257492,-57.82807541
0.004095,4099.506836,-11060.60059,6870.833984,90.00309753,-262.980072,120.4389267,-57.53821182
0.00416,3835.787109,-11042.95215,7084.129395,86.30731964,-263.1974487,124.5695038,-57.10341263
0.004225,3572.067139,-11020.76563,7293.89502,82.97386932,-263.0525208,128.7000732,-55.94395447
0.00429,3306.834717,-10996.05762,7503.15625,79.78535461,-262.5452576,132.613266,-54.13229752
0.004355,3041.602051,-10966.30664,7709.392578,76.66930389,-261.7481384,136.4539642,-52.39310837
0.00442,2777.882324,-10930.50586,7913.106934,73.55325317,-260.4437561,140.3671417,-50.00172043
0.004485,2514.666748,-10888.65332,8115.309082,70.36473846,-258.7045593,144.2078552,-47.3204689
0.00455,2252.963867,-10840.24609,8311.459961,67.32115936,-256.8204346,147.7587128,-44.56674957
0.004615,1991.261108,-10782.76172,8502.569336,64.13264465,-254.5739746,151.2370911,-41.66810226
0.00468,1729.558228,-10716.70605,8690.147461,61.01659393,-252.1825867,154.4255981,-38.98684692
0.004745,1469.368164,-10639.55664,8873.692383,57.75561142,-249.6462708,157.3242493,-36.522995
0.00481,1208.673828,-10552.82617,9052.699219,54.27722931,-247.1099548,160.5852356,-34.05914307
0.004875,948.987915,-10455.00293,9223.638672,50.72638321,-244.9359589,163.5563507,-32.03008652
0.00494,689.302063,-10345.07813,9388.022461,46.95813751,-242.7619781,166.3825378,-30.50829697
0.005005,430.1204529,-10223.55469,9544.337891,43.33482361,-240.6604614,168.7014618,-29.3488369
0.00507,170.4346008,-10094.46875,9695.106445,39.27671432,-238.7038727,171.0928497,-28.84157181
0.005135,-91.7724762,-9956.305664,9838.816406,35.14613724,-236.7472839,173.1943665,-28.62417412
0.0052,-352.9710693,-9810.074219,9977.988281,30.58076286,-234.7906952,175.0784912,-29.05897141
0.005265,-617.1951294,-9658.296875,10108.58691,25.6530571,-232.9065704,177.1800079,-29.63870049
0.00533,-879.4022217,-9496.43457,10230.11035,20.43548584,-230.8050385,179.0641327,-30.79816055
0.005395,-1144.130493,-9330.538086,10342.55664,14.85558319,-228.1962585,180.2960663,-31.95762062
0.00546,-1409.86731,-9160.103516,10446.93555,9.493080139,-225.2251434,181.2381134,-33.11708069
0.005525,-1678.125366,-8985.130859,10544.75879,4.203042984,-222.1815643,182.0352478,-34.34900665
0.00559,-1947.896118,-8806.124023,10636.53125,-1.086994052,-218.993042,183.2671814,-35.21860504
0.005655,-2219.179443,-8620.057617,10720.23535,-6.884294987,-215.7320557,185.0063629,-35.50846863
0.00572,-2489.95874,-8428.445313,10791.33398,-12.7540617,-212.1812134,187.1078949,-35.50846863
0.005785,-2761.242188,-8231.790039,10851.33887,-18.55136299,-208.2680359,189.0644836,-35.36353683
0.00585,-3031.517334,-8029.587402,10903.27637,-23.98633194,-204.0649872,190.9485931,-34.49394226
0.005915,-3299.775391,-7821.838867,10947.14551,-28.76910591,-199.6445465,192.6153259,-32.9721489
0.00598,-3570.050293,-7607.030762,10983.95508,-33.11708069,-195.0791779,193.9921875,-31.37789154
0.006045,-3841.33374,-7384.154785,11018.24414,-37.68245697,-190.296402,195.658905,-29.05897141
0.00611,-4109.591797,-7157.244629,11046.48145,-42.17536545,-185.1513062,197.4705658,-26.23278618
0.006175,-4375.328613,-6924.283691,11069.17285,-46.81320572,-179.8612671,199.5720825,-23.26166916
0.00624,-4632.997559,-6687.289063,11087.83008,-50.94378281,-174.78862,201.8185425,-20.14562035
0.006305,-4886.12793,-6448.277344,11101.44434,-54.34969711,-170.0058441,204.1374664,-16.88463974
0.00637,-5132.199219,-6202.710449,11111.5293,-57.53821182,-165.8028107,205.9491119,-13.47872353
0.006435,-5376.253418,-5953.109375,11117.07617,-60.43686295,-161.0924988,207.2535095,-10.50760841
0.0065,-5614.76123,-5698.46582,11121.11035,-63.48044586,-156.5271301,208.2680359,-7.608956814
0.006565,-5846.209473,-5441.30127,11120.60547,-67.10375977,-151.454483,209.2100983,-5.290037155
0.00663,-6069.085449,-5182.624023,11116.06738,-70.72707367,-146.164444,209.4999695,-3.260982037
0.006695,-6286.918945,-4921.425293,11107.49512,-74.27791595,-141.3092041,209.6448975,-1.811656952
0.00676,-6499.206055,-4656.192871,11093.88086,-77.68383026,-136.6713715,209.4999695,-0.65219599
0.006825,-6708.97168,-4387.93457,11076.23242,-81.30714417,-131.9610596,208.7752991,-0.072466001
0.00689,-6916.21582,-4114.129883,11056.0625,-85.29279327,-126.9608917,207.9781647,0.072466001
0.006955,-7120.939453,-3841.33374,11031.8584,-89.49583435,-122.0331879,206.6737823,-0.072466001
0.00702,-7321.124023,-3568.033203,11002.1084,-93.91627502,-116.9605484,205.5143127,-0.942061007
0.007085,-7519.796387,-3296.749756,10967.31543,-98.1193161,-112.1777725,203.7026672,-1.811656952
0.00715,-7716.45166,-3024.457764,10927.48047,-102.1774292,-107.7573318,201.6735992,-3.333447933
0.007215,-7911.090332,-2752.165771,10882.09766,-106.0181427,-103.4818192,199.4271545,-5.290037155
0.00728,-8104.21582,-2479.369629,10829.65625,-109.8588562,-99.13384247,196.6009674,-7.319091797
0.007345,-8292.802734,-2208.086182,10770.15625,-113.8444977,-94.42353821,193.3399811,-9.710478783
0.00741,-8478.365234,-1938.31543,10703.0918,-117.8301392,-89.93063354,189.9340668,-12.24679947
0.007475,-8658.884766,-1671.57019,10626.44629,-121.4534531,-85.58265686,186.4556885,-14.78311729
0.00754,-8837.386719,-1404.320679,10541.22852,-125.149231,-81.01728058,183.0497742,-17.17450333
0.007605,-9012.360352,-1138.583862,10444.91797,-128.7000732,-76.52437592,179.7163239,-19.78328896
0.00767,-9181.282227,-872.3427734,10338.52246,-132.2509308,-71.95899963,176.2379456,-22.10220909
0.007735,-9344.152344,-607.1102295,10223.05078,-135.8017731,-67.03129578,172.9769592,-23.84140015
0.0078,-9502.989258,-344.3989258,10097.49414,-138.9902954,-61.88618851,169.4985809,-25.29072571
0.007865,-9654.767578,-82.69608307,9963.365234,-142.1788025,-56.66861725,166.0926666,-26.30525208
0.00793,-9799.989258,178.5025177,9821.167969,-145.3673248,-51.0887146,162.9766235,-26.81251717
0.007995,-9938.657227,439.1968689,9672.416016,-148.7007751,-45.21894836,160.0055084,-27.02991486
0.00806,-10070.76855,699.8912354,9515.595703,-151.6718903,-39.34917831,157.3242493,-26.88498306
0.008125,-10194.30859,960.0812988,9351.716797,-154.5705414,-33.26201248,154.4980774,-26.16032028
0.00819,-10308.77246,1220.271362,9182.290039,-156.8894501,-27.17484856,151.3095551,-25.29072571
0.008255,-10416.17676,1479.453003,9008.830078,-158.7011108,-20.87028313,148.0485687,-24.20373154
0.00832,-10514.50391,1740.147339,8831.84082,-160.8751068,-14.63818455,144.6426544,-23.11673737
0.008385,-10604.76367,2001.345947,8650.3125,-163.0490875,-7.826355934,141.5990753,-21.6674118
0.00845,-10684.43457,2263.048828,8463.238281,-165.8752747,-0.724663019,138.265625,-20.43548584
0.008515,-10752.50684,2525.255859,8268.599609,-168.8463898,6.59442997,135.0046387,-19.20355988
0.00858,-10808.98242,2786.45459,8069.422852,-171.8175049,13.91352272,131.0914612,-18.62382889
0.008645,-10857.89453,3047.148926,7865.204102,-174.1364288,20.65288544,126.8159561,-18.2614975
0.00871,-10898.23438,3308.347412,7654.934082,-176.1654816,26.95744896,122.2505798,-18.4064312
0.008775,-10934.03516,3570.554443,7437.604492,-178.2669983,32.89968109,117.4678116,-19.20355988
0.00884,-10963.28125,3833.265869,7214.224609,-180.5134583,38.62451935,112.4676361,-20.50795174
0.008905,-10989.50195,4095.4729,6985.297363,-183.3396454,44.63921738,107.2500687,-22.31960869
0.00897,-11008.66309,4354.150391,6752.84082,-186.3832245,50.43651962,102.1774292,-24.42113113
0.009035,-11025.30371,4607.280762,6514.837402,-188.9920044,55.87148666,97.17725372,-26.74005127
0.0091,-11036.90137,4856.881836,6272.800293,-191.6732635,60.72672653,92.39448547,-29.05897141
0.009165,-11046.48145,5102.953125,6026.224609,-193.7747803,64.85730743,87.90157318,-30.79816055
0.00923,-11051.52441,5343.477539,5775.11084,-195.586441,69.20527649,83.77099609,-32.68228531
0.009295,-11055.05371,5579.464355,5518.450684,-197.1806946,73.62572479,79.35055542,-33.76927948
0.00936,-11055.05371,5809.903809,5260.781738,-198.5575562,78.48096466,74.93011475,-34.63887405
0.009425,-11049.50684,6031.771484,5000.087402,-199.5720825,83.40866852,70.72707367,-34.92873764
0.00949,-11040.43066,6250.109375,4737.880371,-200.3692169,88.40883636,66.81389618,-34.63887405
0.009555,-11027.32031,6466.430176,4474.664551,-200.6590729,93.40901184,62.75578308,-33.40694809
0.00962,-11011.68848,6681.238281,4207.919434,-200.7315521,98.77151489,58.6976738,-31.95762062
0.009685,-10992.52734,6894.029297,3940.165527,-200.4416809,104.4963531,54.6395607,-29.92856598
0.00975,-10969.83691,7104.803223,3672.916016,-200.1518097,110.583519,50.65391541,-27.31978035
0.009815,-10939.58203,7315.577637,3405.162354,-199.4271545,116.8880768,46.74073792,-24.42113113
0.00988,-10904.78906,7524.838867,3134.887451,-198.3401642,122.685379,42.82756042,-21.08768272
0.009945,-10863.94531,7733.091797,2864.612305,-196.6734314,128.2652893,38.91438293,-17.53683472
0.01001,-10818.56348,7939.832031,2594.841553,-194.4994507,133.8451843,35.21860504,-13.69612312
0.010075,-10766.12207,8144.05127,2326.079346,-192.3979187,138.9178162,31.45035744,-9.927877426
0.01014,-10705.6123,8345.244141,2057.821289,-190.5138092,144.2078552,28.04444313,-6.449497223
0.010205,-10636.02734,8543.916992,1790.067627,-188.5572205,149.2080383,24.71099472,-2.391386986
0.01027,-10555.34766,8737.546875,1522.313843,-186.6006165,154.4255981,21.45001411,1.014528036
0.010335,-10463.5752,8926.133789,1253.551514,-184.4990997,159.353302,17.89916611,4.782773018
0.0104,-10362.22168,9108.670898,987.8147583,-182.252655,163.9186859,14.13092136,8.188687325
0.010465,-10249.77539,9286.668945,722.5822144,-179.7887878,168.7014618,10.29020882,11.23227024
0.01053,-10127.74805,9456.599609,459.3666382,-177.5423431,172.9769592,6.377030849,14.13092136
0.010595,-9995.636719,9622.496094,195.1425781,-175.5857544,177.3974152,2.536319017,16.66724014
0.01066,-9854.952148,9779.31543,-68.57723999,-173.7016296,181.7453918,-1.666723967,18.62382889
0.010725,-9706.704102,9930.084961,-332.2970581,-171.9624329,186.4556885,-6.087165833,20.21808624
0.01079,-9551.901367,10070.76855,-597.0253296,-170.2232513,190.8036652,-11.15980434,21.37754631
0.010855,-9391.047852,10204.39355,-859.2324219,-168.1217346,194.6443787,-16.30490875,22.39207458
0.01092,-9224.646484,10328.94238,-1121.439575,-166.1651306,198.6300201,-21.45001411,22.82687187
0.010985,-9056.229492,10445.42285,-1383.646606,-164.2085419,202.1808777,-26.59511757,23.11673737
0.01105,-8881.256836,10550.80957,-1647.870605,-162.1070251,205.73172,-31.81268883,23.33413696
0.011115,-8701.241211,10647.12012,-1912.094727,-160.0779724,209.4274902,-37.24765778,23.33413696
0.01118,-8515.679688,10731.83301,-2177.831543,-157.4691925,212.9783478,-42.82756042,23.55153465
0.011245,-8327.595703,10804.44434,-2441.55127,-154.7879333,216.6016541,-48.98719406,23.84140015
0.01131,-8133.966309,10864.9541,-2705.27124,-152.0342102,220.4423676,-54.8569603,24.42113113
0.011375,-7936.302246,10915.37793,-2966.973877,-148.9906311,223.9932098,-60.43686295,25.14579201
0.01144,-7732.083496,10955.21387,-3228.172607,-146.164444,227.6165314,-65.6544342,26.23278618
0.011505,-7520.805176,10987.48535,-3491.892334,-142.8310089,231.0949097,-70.29227448,27.97197723
0.01157,-7300.95459,11013.20117,-3755.10791,-139.2076874,234.355896,-74.85765076,29.92856598
0.011635,-7077.574219,11034.37988,-4018.323486,-135.2220459,237.6893311,-79.64041901,32.39241791
0.0117,-6849.655762,11053.03711,-4279.018066,-131.0189972,241.1677246,-84.1333313,35.00120544
0.011765,-6617.703125,11066.65137,-4534.165527,-127.0333557,244.7185669,-88.11897278,38.18972015
0.01183,-6381.212891,11078.24902,-4787.296387,-123.5549774,248.1244812,-91.52488708,41.30577087
0.011895,-6140.184082,11086.31738,-5037.401367,-120.1490631,250.8782043,-94.4960022,44.27688599
0.01196,-5893.608398,11091.86426,-5284.480957,-116.6706848,253.4145203,-97.32218933,47.03060532
0.012025,-5644.511719,11095.89746,-5527.526855,-113.0473709,255.443573,-100.2933044,49.56692123
0.01209,-5393.397949,11097.91504,-5764.017578,-109.424057,257.3276978,-103.4093552,51.52351379
0.012155,-5140.26709,11096.90625,-5994.457031,-105.8007431,259.2118225,-106.5978699,53.19023514
0.01222,-4884.615234,11092.87207,-6218.341797,-102.5397568,260.4437561,-109.6414566,54.49462891
0.012285,-4625.937988,11083.7959,-6440.713379,-99.35124207,261.3858032,-112.8299713,55.29175949
0.01235,-4364.235352,11072.19824,-6659.555664,-95.65546417,261.9655457,-116.3083496,55.65409088
0.012415,-4101.019531,11056.56641,-6874.868164,-91.52488708,262.1829224,-120.2939911,55.50915527
0.01248,-3837.299805,11039.42285,-7087.65918,-87.61170959,262.0379944,-124.3521042,55.00189209
0.012545,-3574.588379,11017.23535,-7296.416504,-83.9159317,261.8930664,-128.4826813,54.20476532
0.01261,-3310.364502,10991.51953,-7504.669434,-80.5100174,261.3858032,-132.2509308,52.75543976
0.012675,-3045.131836,10961.26465,-7712.417969,-77.2490387,260.5886841,-136.0916443,50.94378281
0.01274,-2779.39502,10925.46289,-7918.149414,-74.06051636,259.4292297,-140.2222137,48.76979446
0.012805,-2514.162598,10883.61133,-8119.847168,-70.65460205,258.0523682,-144.3527985,46.30594254
0.01287,-2251.451172,10835.20313,-8318.519531,-67.39362335,256.0957642,-148.0485687,43.55222321
0.012935,-1989.244141,10779.23242,-8510.636719,-64.13264465,253.9217834,-151.7443542,40.72603989
0.013,-1728.045532,10714.68945,-8698.719727,-61.08905792,251.6753235,-154.8603973,38.11725235
0.013065,-1466.342651,10639.55664,-8883.777344,-57.97301102,249.1390076,-157.7590485,35.43600082
0.01313,-1204.639893,10554.33887,-9062.78418,-54.4221611,246.6751556,-160.8751068,33.11708069
0.013195,-945.458252,10456.01172,-9234.227539,-50.94378281,244.3562317,-163.7737579,31.23295784
0.01326,-685.2681274,10347.59863,-9398.106445,-47.2480011,242.3996429,-166.6724091,29.63870049
0.013325,-425.0780334,10227.58887,-9555.430664,-43.40729141,240.2256622,-168.9913177,28.55170631
0.01339,-164.383667,10097.99805,-9706.704102,-39.34917831,238.1241302,-171.0203705,27.97197723
0.013455,96.31067657,9960.339844,-9852.935547,-35.14613724,236.0226135,-173.1943665,27.75457764
0.01352,358.0135193,9815.117188,-9992.106445,-30.36336327,234.0660248,-175.2234192,28.33430862
