Time (s), Va, Vb, Vc, Ia, Ib, Ic, In
0,534.3520508,-10146.72754,10515.03809,-177.6671906,-1499.553833,1732.766846,-5.912230015
0.000130174,1024.904785,-10416.95898,10287.96875,-106.6003189,-1535.116333,1667.714111,0
0.000260349,1506.69751,-10643.60352,10008.5,-35.53343964,-1570.678955,1602.661499,0
0.000390523,1970.970703,-10809.22949,9711.563477,41.45567703,-1606.241455,1525.781006,0
0.000520698,2461.523438,-10905.11719,9362.226563,130.2892761,-1641.803955,1442.986694,0
0.000650872,2925.796387,-10948.70313,9012.889648,219.122879,-1677.366577,1360.192383,5.912230015
0.000781047,3372.549805,-10992.28809,8576.21875,307.9564819,-1718.856201,1271.484131,0
0.000911221,3810.543213,-11018.43945,8069.680664,408.634552,-1760.345825,1182.776001,0
0.001041395,4239.776855,-11062.02539,7510.741699,509.3126221,-1801.835449,1094.067749,0
0.00117157,4677.770508,-11096.89355,6934.335938,621.8352051,-1843.325073,1011.273438,5.912230015
0.001301744,5159.562988,-11131.7627,6331.72998,722.5132446,-1878.887573,922.5652466,0
0.001431919,5685.155273,-11140.47949,5685.456543,817.269104,-1914.450073,845.6848145,0
0.001562093,6219.507324,-11157.91406,5047.916992,912.0249023,-1938.158447,774.7182617,5.912230015
0.001692268,6780.13916,-11140.47949,4401.644043,1006.780762,-1961.866821,703.751709,5.912230015
0.001822442,7314.491211,-11131.7627,3755.37085,1071.925415,-1973.721069,638.6990356,0
0.001952617,7813.803711,-11105.61133,3117.831055,1137.070068,-1979.648071,579.5602417,0
0.002082791,8278.077148,-11079.45996,2497.758301,1196.29248,-1973.721069,526.3353271,0
0.002212965,8698.550781,-11001.00586,1895.152222,1243.67041,-1961.866821,467.1965027,5.912230015
0.00234314,9075.224609,-10931.26855,1310.013062,1285.125977,-1938.158447,413.9715881,0
0.002473314,9408.099609,-10852.81445,733.6072998,1332.503906,-1902.595947,348.9189148,5.912230015
0.002603489,9714.695313,-10739.49219,174.6684113,1368.037354,-1855.179199,289.7801208,0
0.002733663,10012.53125,-10591.30078,-349.3368225,1403.570801,-1801.835449,224.7274323,0
0.002863838,10284.08691,-10390.80762,-908.2756958,1445.026489,-1736.637451,147.8470001,0
0.002994012,10529.36328,-10129.29395,-1388.613892,1474.637695,-1659.585205,70.96656036,0
0.003124186,10748.36035,-9832.911133,-1851.485107,1504.248901,-1582.533081,-5.913879871,0
0.003254361,10853.47852,-9484.226563,-2305.623047,1539.782349,-1505.480957,-94.62207794,0
0.003384535,10906.03809,-9126.825195,-2794.69458,1569.393555,-1416.574585,-189.2441559,0
0.00351471,10949.83691,-8725.836914,-3248.832275,1604.927002,-1327.668213,-283.8662415,0
0.003644884,11002.39648,-8246.395508,-3685.503418,1640.460449,-1238.761841,-384.4021912,-5.912230015
0.003775059,11046.19531,-7697.217285,-4122.174316,1681.916138,-1143.928345,-490.8520203,0
0.003905233,11081.23535,-7104.453125,-4558.845215,1717.449585,-1060.949097,-603.2157593,0
0.004035407,11107.51465,-6502.97168,-5047.916992,1752.983032,-966.1157227,-709.6655884,0
0.004165582,11133.79395,-5857.904785,-5554.455566,1794.438599,-894.9906006,-822.0292969,0
0.004295756,11142.55371,-5212.837891,-6104.660645,1824.049805,-812.0113525,-916.6513672,0
0.004425931,11151.31445,-4567.770996,-6663.599609,1847.73877,-740.8862915,-1011.273438,0
0.004556105,11133.79395,-3913.987061,-7213.805176,1859.583252,-681.6153564,-1082.23999,0
0.00468628,11107.51465,-3277.637207,-7737.810547,1865.505493,-616.4173584,-1153.206543,0
0.004816454,11072.47559,-2684.873047,-8174.481445,1865.505493,-551.2193604,-1206.431519,0
0.004946628,11028.67578,-2100.825928,-8611.152344,1853.661011,-497.8755798,-1259.656372,-5.912230015
0.005076803,10949.83691,-1499.344727,-8986.689453,1829.972046,-438.6046753,-1318.795166,0
0.005206977,10870.99805,-924.0147095,-9327.292969,1800.36084,-379.3337708,-1354.278442,0
0.005337152,10774.63965,-366.1190491,-9659.163086,1752.983032,-308.2086792,-1401.589478,-5.912230015
0.005467326,10625.72168,183.0595245,-9947.366211,1705.605103,-237.0836029,-1442.986694,-5.912230015
0.005597501,10450.52441,706.086731,-10235.56836,1652.304932,-171.8856201,-1490.297729,-5.912230015
0.005727675,10205.24805,1211.679688,-10488.83789,1587.160278,-88.90634918,-1525.781006,-5.912230015
0.00585785,9916.171875,1691.121338,-10724.64063,1516.093384,-5.927090168,-1561.264282,-5.912230015
0.005988024,9574.537109,2161.845703,-10890.5752,1439.104248,82.97926331,-1596.747559,-5.912230015
0.006118198,9224.142578,2623.853271,-10986.64258,1356.192871,171.8856201,-1626.317017,0
0.006248373,8838.708008,3094.577637,-11039.04297,1273.281494,266.7190552,-1661.800293,0
0.006378547,8391.955078,3539.150879,-11073.97656,1184.447998,373.4066772,-1697.283569,-5.912230015
0.006508722,7892.642578,3983.723877,-11100.17773,1095.61438,486.0213928,-1744.594604,0
0.006638896,7332.010742,4437.01416,-11135.11133,1006.780762,592.7090454,-1780.077881,-11.82446003
0.006769071,6727.580078,4899.021484,-11161.31152,923.8693848,699.3966675,-1815.561157,0
0.006899245,6096.869141,5404.614746,-11178.77832,840.9580688,806.0842896,-1856.958252,0
0.007029419,5457.398926,5945.076172,-11196.24512,769.8911743,906.8447876,-1886.52771,0
0.007159594,4817.928223,6485.537598,-11161.31152,704.746521,1001.678223,-1910.183228,-5.912230015
0.007289768,4169.697754,7025.999023,-11170.04492,639.6018677,1078.730469,-1916.097046,-5.912230015
0.007419943,3521.467529,7531.591797,-11126.37793,580.3795166,1149.855469,-1933.838745,-5.912230015
0.007550117,2899.516846,8011.033203,-11091.44434,521.1571045,1215.053467,-1933.838745,-5.912230015
0.007680292,2286.325928,8464.323242,-11065.24316,473.7791748,1274.324341,-1922.010986,0
0.007810466,1690.654785,8847.876953,-11004.10938,414.5567932,1321.741089,-1910.183228,0
0.00794064,1112.503418,9205.279297,-10925.50879,361.2566223,1375.084961,-1880.61377,0
0.008070815,551.8717651,9536.529297,-10829.44141,307.9564819,1422.501587,-1839.216675,0
0.008200989,0,9832.911133,-10698.44043,248.7340698,1463.991211,-1791.90564,-5.912230015
0.008331164,-525.5921631,10120.57617,-10523.77148,183.5894318,1505.480957,-1738.680664,-5.912230015
0.008461338,-1033.664551,10390.80762,-10287.96875,118.4447937,1541.043457,-1673.628052,-5.912230015
0.008591513,-1506.69751,10617.45215,-10017.2334,41.45567703,1582.533081,-1608.575317,-5.912230015
0.008721687,-1979.730469,10783.07813,-9711.563477,-35.53343964,1606.241455,-1531.694946,-5.912230015
0.008851862,-2452.763428,10878.96582,-9379.693359,-118.4447937,1647.731079,-1448.900513,-5.912230015
0.008982036,-2934.556396,10922.55176,-9021.623047,-207.2783966,1683.293579,-1366.106201,0
0.00911221,-3381.30957,10948.70313,-8593.685547,-302.0342407,1724.783203,-1277.398071,-5.912230015
0.009242385,-3819.303223,10983.57129,-8087.147461,-402.7123108,1760.345825,-1188.689819,0
0.009372559,-4231.01709,11018.43945,-7545.675293,-503.3903809,1801.835449,-1094.067749,0
0.009502734,-4686.530273,11053.30859,-6951.802734,-615.9129639,1843.325073,-1011.273438,-5.912230015
0.009632908,-5168.323242,11088.17676,-6349.196777,-716.5910034,1878.887573,-928.479126,0
0.009763083,-5685.155273,11096.89355,-5711.656738,-811.3468628,1914.450073,-851.5986938,0
0.009893257,-6219.507324,11105.61133,-5074.117188,-900.1804199,1944.085571,-780.6321411,0
0.010023431,-6771.379395,11096.89355,-4419.11084,-994.9362793,1967.793945,-709.6655884,-5.912230015
0.010153606,-7305.731445,11088.17676,-3781.571045,-1066.003174,1973.721069,-644.612915,0
0.01028378,-7813.803711,11062.02539,-3152.764648,-1125.225586,1979.648071,-585.4741211,-5.912230015
0.010413955,-8286.836914,11035.87402,-2532.691895,-1184.447998,1973.721069,-526.3353271,-5.912230015
0.010544129,-8707.310547,10983.57129,-1921.352539,-1231.825928,1961.866821,-467.1965027,-5.912230015
0.010674304,-9075.224609,10905.11719,-1336.213257,-1279.203735,1938.158447,-413.9715881,0
0.010804478,-9425.620117,10835.38086,-768.5410156,-1320.659424,1902.595947,-348.9189148,0
0.010934652,-9723.455078,10722.05762,-192.1352539,-1356.192871,1855.179199,-289.7801208,5.912230015
0.011064827,-10021.29102,10573.86719,340.6033936,-1397.64856,1801.835449,-218.8135529,-5.912230015
0.011195001,-10284.08691,10382.08984,864.6086426,-1433.182007,1736.637451,-153.7608795,0
0.011325176,-10529.36328,10120.57617,1353.680176,-1468.715454,1671.439453,-82.79431915,-5.912230015
0.01145535,-10748.36035,9824.194336,1825.284912,-1504.248901,1594.387207,0,0
0.011585525,-10862.23828,9475.509766,2288.15625,-1527.937866,1511.407959,88.70819855,5.912230015
0.011715699,-10906.03809,9126.825195,2759.760742,-1563.471313,1422.501587,189.2441559,-5.912230015
0.011845874,-10958.59668,8725.836914,3231.365479,-1599.004761,1333.595337,277.9523621,5.912230015
0.011976048,-11011.15625,8255.113281,3668.036621,-1628.615967,1250.615967,378.4883118,5.912230015
0.012106222,-11054.95508,7705.934082,4087.240723,-1670.071655,1155.782593,484.9381409,5.912230015
0.012236397,-11089.99512,7113.169922,4541.378418,-1711.527344,1072.803345,597.3018799,0
0.012366571,-11116.27441,6520.405762,5012.983398,-1752.983032,977.9698486,703.751709,5.912230015
0.012496746,-11133.79395,5875.338867,5519.521484,-1776.671875,900.9177246,810.2015381,5.912230015
0.01262692,-11160.07422,5230.271973,6069.727051,-1812.205322,829.7926025,904.8236084,5.912230015
0.012757095,-11160.07422,4576.488281,6619.932617,-1829.972046,752.7404785,993.5317993,0
0.012887269,-11142.55371,3940.138428,7161.404785,-1847.73877,687.5424805,1076.326172,0
0.013017443,-11107.51465,3295.071533,7685.410156,-1853.661011,628.2715454,1153.206543,0
0.013147618,-11072.47559,2676.156006,8165.748047,-1847.73877,569.0006714,1206.431519,5.912230015
0.013277792,-11028.67578,2083.391602,8593.685547,-1841.816528,509.7297668,1259.656372,0
0.013407967,-10958.59668,1490.627563,8977.956055,-1818.127563,450.4588623,1312.881348,0
0.013538141,-10870.99805,924.0147095,9318.55957,-1788.516357,391.1879578,1366.106201,5.912230015
0.013668316,-10792.15918,357.4019165,9641.696289,-1752.983032,320.0628662,1401.589478,0
0.01379849,-10634.48145,-183.0595245,9921.166016,-1699.682861,248.9377899,1448.900513,0
0.013928664,-10450.52441,-706.086731,10209.36816,-1646.38269,177.8126984,1490.297729,0
0.014058839,-10205.24805,-1202.962524,10471.37109,-1581.238037,106.6876221,1525.781006,5.912230015
0.014189013,-9916.171875,-1682.404175,10707.17383,-1504.248901,17.78127098,1555.350464,0
0.014319188,-9583.296875,-2144.411621,10864.375,-1433.182007,-65.19799042,1590.83374,5.912230015
0.014449362,-9224.142578,-2615.135986,10969.17578,-1350.27063,-165.9585266,1626.317017,-5.912230015
0.014579537,-8847.46875,-3068.42627,11021.57617,-1261.437134,-260.7919617,1661.800293,0
0.014709711,-8400.714844,-3530.433594,11039.04297,-1178.525757,-361.5524902,1703.197388,0
0.014839885,-7892.642578,-3975.006836,11065.24316,-1089.692139,-474.1672058,1744.594604,0
0.01497006,-7332.010742,-4428.296875,11100.17773,-994.9362793,-586.7819214,1780.077881,0
0.015100234,-6727.580078,-4890.304199,11135.11133,-917.9471436,-687.5424805,1815.561157,0
0.015230409,-6114.38916,-5404.614746,11143.84473,-835.0358276,-794.2301025,1851.044434,0
0.015360583,-5466.158691,-5936.358887,11161.31152,-763.9689331,-894.9906006,1886.52771,0
0.015490758,-4835.448242,-6485.537598,11161.31152,-698.8242798,-989.8240356,1910.183228,5.912230015
0.015620932,-4169.697754,-7025.999023,11135.11133,-627.7574463,-1072.803345,1916.097046,5.912230015
0.015751107,-3538.987305,-7549.025879,11126.37793,-574.4572754,-1143.928345,1933.838745,5.912230015
0.015881281,-2899.516846,-8019.750488,11091.44434,-515.2348633,-1209.126343,1927.924805,5.912230015
0.016011455,-2295.085938,-8473.041016,11039.04297,-461.9346924,-1262.470215,1922.010986,-5.912230015
0.01614163,-1699.414673,-8856.59375,10977.90918,-414.5567932,-1315.813965,1898.355469,0
0.016271804,-1112.503418,-9222.712891,10899.30859,-355.3343811,-1357.303589,1868.786011,5.912230015
0.016401979,-560.6316528,-9553.963867,10811.97461,-302.0342407,-1404.720337,1839.216675,0
0.016532153,0,-9859.0625,10680.97266,-236.8895874,-1452.137085,1785.991699,0
0.016662328,516.8322754,-10146.72754,10515.03809,-177.6671906,-1493.626709,1732.766846,0
0.016792502,1024.904785,-10416.95898,10287.96875,-112.5225525,-1535.116333,1667.714111,0
0.016922676,1506.69751,-10643.60352,10008.5,-41.45567703,-1570.678955,1602.661499,0
0.017052851,1979.730469,-10809.22949,9711.563477,41.45567703,-1606.241455,1525.781006,0
0.017183025,2452.763428,-10905.11719,9370.959961,124.3670349,-1641.803955,1448.900513,0
0.0173132,2925.796387,-10948.70313,9012.889648,213.2006378,-1677.366577,1360.192383,0
0.017443374,3372.549805,-10983.57129,8576.21875,307.9564819,-1712.929077,1271.484131,0
0.017573549,3810.543213,-11027.15723,8069.680664,408.634552,-1760.345825,1188.689819,0
0.017703723,4231.01709,-11062.02539,7519.475098,509.3126221,-1795.908325,1088.153931,0
0.017833897,4677.770508,-11096.89355,6943.069336,615.9129639,-1843.325073,1005.359558,5.912230015
0.017964072,5159.562988,-11131.7627,6322.996582,722.5132446,-1878.887573,922.5652466,0
0.018094246,5676.395508,-11131.7627,5694.189941,817.269104,-1914.450073,845.6848145,0
0.018224421,6219.507324,-11149.19629,5065.383789,912.0249023,-1938.158447,774.7182617,0
0.018354595,6762.619141,-11131.7627,4401.644043,1006.780762,-1961.866821,703.751709,5.912230015
0.01848477,7296.971191,-11123.04492,3764.104248,1077.847656,-1973.721069,638.6990356,5.912230015
0.018614944,7805.043945,-11105.61133,3135.297852,1137.070068,-1979.648071,579.5602417,0
0.018745119,8260.556641,-11079.45996,2515.225098,1196.29248,-1973.721069,526.3353271,0
0.018875293,8689.791016,-11001.00586,1912.619019,1243.67041,-1967.793945,467.1965027,0
0.019005467,9057.705078,-10957.41992,1318.74646,1285.125977,-1938.158447,408.0577087,5.912230015
0.019135642,9408.099609,-10852.81445,742.3407593,1332.503906,-1902.595947,348.9189148,5.912230015
0.019265816,9714.695313,-10774.36035,183.401825,1368.037354,-1855.179199,289.7801208,0
0.019395991,10003.77148,-10600.01855,-349.3368225,1409.493042,-1801.835449,224.7274323,5.912230015
0.019526165,10284.08691,-10390.80762,-899.5422974,1445.026489,-1736.637451,147.8470001,-5.912230015
0.01965634,10529.36328,-10129.29395,-1379.880371,1474.637695,-1659.585205,76.88043976,0
0.019786514,10739.60059,-9832.911133,-1842.751709,1498.32666,-1588.460205,-5.913879871,0
0.019916688,10862.23828,-9492.944336,-2305.623047,1539.782349,-1511.407959,-94.62207794,0
0.020046863,10914.79785,-9135.541992,-2777.227783,1569.393555,-1422.501587,-183.3302765,-5.912230015
0.020177037,10958.59668,-8725.836914,-3248.832275,1604.927002,-1321.741089,-283.8662415,0
0.020307212,10993.63672,-8246.395508,-3685.503418,1646.38269,-1238.761841,-384.4021912,0
0.020437386,11046.19531,-7723.368652,-4069.773926,1681.916138,-1149.855469,-490.8520203,0
0.020567561,11072.47559,-7139.321289,-4515.178223,1723.371826,-1066.876221,-597.3018799,0
0.020697735,11116.27441,-6529.123047,-4995.516602,1758.905273,-983.8969727,-703.751709,0
0.020827909,11133.79395,-5892.773438,-5502.054688,1794.438599,-900.9177246,-816.1154175,-5.912230015
0.020958084,11133.79395,-5247.706543,-6052.260254,1824.049805,-823.8655396,-904.8236084,0
0.021088258,11151.31445,-4567.770996,-6646.132813,1847.73877,-746.8133545,-1005.359558,0
0.021218433,11142.55371,-3931.421143,-7196.338379,1859.583252,-681.6153564,-1082.23999,0
0.021348607,11098.75488,-3295.071533,-7729.077148,1871.427734,-616.4173584,-1153.206543,0
0.021478782,11063.71484,-2667.438721,-8191.948242,1859.583252,-551.2193604,-1212.345337,0
0.021608956,11028.67578,-2074.674561,-8637.352539,1853.661011,-497.8755798,-1271.484131,0
0.021739131,10958.59668,-1481.9104,-9004.15625,1835.894287,-438.6046753,-1318.795166,0
0.021869305,10879.75781,-941.4489746,-9327.292969,1800.36084,-373.4066772,-1366.106201,-5.912230015
0.021999479,10774.63965,-374.8361816,-9650.429688,1764.827515,-314.1357727,-1401.589478,-5.912230015
0.022129654,10634.48145,165.6252899,-9947.366211,1717.449585,-243.0106964,-1448.900513,-5.912230015
0.022259828,10450.52441,706.086731,-10226.83496,1658.227173,-171.8856201,-1496.211548,-5.912230015
0.022390003,10196.48828,1211.679688,-10480.10449,1587.160278,-88.90634918,-1519.867188,0
0.022520177,9924.932617,1699.838379,-10715.90723,1516.093384,-5.927090168,-1561.264282,-5.912230015
0.022650352,9583.296875,2161.845703,-10881.8418,1439.104248,82.97926331,-1596.747559,0
0.022780526,9224.142578,2615.135986,-10977.90918,1362.115112,171.8856201,-1632.230835,-5.912230015
0.0229107,8838.708008,3094.577637,-11021.57617,1279.203735,272.6461487,-1667.714111,0
0.023040875,8391.955078,3539.150879,-11047.77637,1184.447998,379.3337708,-1697.283569,0
0.023171049,7892.642578,3992.440918,-11073.97656,1095.61438,486.0213928,-1744.594604,0
0.023301224,7332.010742,4428.296875,-11108.91113,1012.703003,592.7090454,-1791.90564,0
0.023431398,6736.339844,4890.304199,-11161.31152,929.791626,699.3966675,-1815.561157,0
0.023561573,6105.628906,5422.048828,-11152.57813,852.8025513,812.0113525,-1856.958252,0
0.023691747,5474.918457,5962.510254,-11170.04492,775.8134155,906.8447876,-1892.441528,0
0.023821921,4835.448242,6502.97168,-11178.77832,716.5910034,1001.678223,-1910.183228,0
0.023952096,4178.458008,7034.71582,-11152.57813,639.6018677,1084.657471,-1927.924805,0
0.02408227,3530.227539,7557.743164,-11135.11133,586.3017578,1155.782593,-1927.924805,0
0.024212445,2908.276611,8019.750488,-11091.44434,533.0015869,1215.053467,-1933.838745,-11.82446003
0.024342619,2295.085938,8464.323242,-11065.24316,479.701416,1274.324341,-1922.010986,0
0.024472794,1708.174561,8865.311523,-11004.10938,420.4790344,1327.668213,-1904.269287,-5.912230015
0.024602968,1121.263306,9222.712891,-10925.50879,367.1788635,1375.084961,-1874.699951,0
0.024733142,569.3915405,9553.963867,-10829.44141,307.9564819,1428.428711,-1833.302734,0
0.024863317,17.51973915,9850.345703,-10698.44043,248.7340698,1469.918335,-1791.90564,0
0.024993491,-508.0724487,10138.01074,-10523.77148,183.5894318,1511.407959,-1732.766846,-5.912230015
0.025123666,-1016.144897,10408.24121,-10296.70215,118.4447937,1541.043457,-1673.628052,0
0.02525384,-1489.177856,10626.16992,-10008.5,41.45567703,1582.533081,-1602.661499,0
0.025384015,-1962.210815,10774.36035,-9720.296875,-35.53343964,1612.168579,-1537.608765,0
0.025514189,-2444.003662,10878.96582,-9397.160156,-118.4447937,1647.731079,-1460.728271,0
0.025644364,-2917.036621,10913.83398,-9021.623047,-207.2783966,1689.220703,-1372.020142,0
0.025774538,-3363.790039,10948.70313,-8602.418945,-296.1119995,1724.783203,-1283.31189,-5.912230015
0.025904712,-3801.783447,10974.85449,-8104.614258,-390.8678284,1766.272827,-1200.517578,-5.912230015
0.026034887,-4222.257324,11018.43945,-7545.675293,-503.3903809,1801.835449,-1105.895508,-11.82446003
0.026165061,-4677.770508,11053.30859,-6969.269531,-604.0684814,1849.252075,-1017.187317,0
0.026295236,-5150.803223,11088.17676,-6357.930176,-716.5910034,1890.741821,-940.3068848,-5.912230015
0.02642541,-5676.395508,11096.89355,-5729.123535,-817.269104,1926.304321,-851.5986938,-5.912230015
0.026555585,-6210.747559,11105.61133,-5091.583984,-906.1026611,1950.012695,-780.6321411,-5.912230015
0.026685759,-6753.859375,11096.89355,-4436.577637,-994.9362793,1973.721069,-715.5794678,-5.912230015
0.026815933,-7296.971191,11088.17676,-3807.77124,-1066.003174,1985.575195,-644.612915,0
0.026946108,-7805.043945,11053.30859,-3170.231689,-1125.225586,1985.575195,-585.4741211,0
0.027076282,-8269.316406,11027.15723,-2550.158691,-1184.447998,1985.575195,-526.3353271,-5.912230015
0.027206457,-8698.550781,10974.85449,-1947.552734,-1237.748169,1961.866821,-467.1965027,-5.912230015
0.027336631,-9066.464844,10905.11719,-1353.680176,-1279.203735,1944.085571,-413.9715881,-5.912230015
0.027466806,-9416.859375,10844.09766,-777.2744141,-1320.659424,1902.595947,-348.9189148,0
0.02759698,-9723.455078,10722.05762,-218.3355103,-1362.115112,1861.106323,-289.7801208,0
0.027727154,-10003.77148,10591.30078,331.8699646,-1397.64856,1807.762451,-218.8135529,-5.912230015
0.027857329,-10284.08691,10382.08984,855.8751831,-1433.182007,1742.564453,-147.8470001,0
0.027987503,-10529.36328,10129.29395,1344.946777,-1468.715454,1671.439453,-76.88043976,0
