Time (s), Va, Vb, Vc, Ia, Ib, Ic, In
0, 111.335395812988, -8553.365234375, 8595.6943359375, 171.655395507813, -1003.9541015625, 866.275817871094, 0.0916569009423256
0.000130208340124227, 606.159362792969, -8787.1982421875, 8322.8154296875, 218.247573852539, -1028.53063964844, 835.556823730469, 0.0672150626778603
0.000260416680248454, 1113.35400390625, -9045.6455078125, 8074.74365234375, 258.709197998047, -1049.42077636719, 803.609069824219, 0.0397179909050465
0.000390625020372681, 1608.17797851563, -9279.478515625, 7764.6533203125, 301.623046875, -1073.99743652344, 777.805053710938, 0.0183313805609941
0.000520833360496908, 2065.89013671875, -9464.0830078125, 7429.75634765625, 340.858581542969, -1087.51452636719, 747.086059570313, 0.00305523001588881
0.000651041700621136, 2535.97290039063, -9673.3017578125, 7082.45556640625, 380.094085693359, -1094.88745117188, 708.994506835938, -0.00916569028049707
0.000781250040745363, 2993.68505859375, -9833.29296875, 6747.55810546875, 420.555725097656, -1096.11633300781, 668.445434570313, -0.0152761498466134
0.00091145838086959, 3414.28564453125, -9956.36328125, 6412.6611328125, 456.112915039063, -1091.20104980469, 625.438842773438, -0.0183313805609941
0.00104166672099382, 3847.25659179688, -10079.43359375, 6052.95654296875, 492.896209716797, -1083.82800292969, 584.889770507813, -0.0122209200635552
0.00117187506111804, 4292.59814453125, -10140.9677734375, 5668.4453125, 529.679504394531, -1072.7685546875, 538.196899414063, -0.00916569028049707
0.00130208340124227, 4713.19873046875, -10177.888671875, 5259.12646484375, 568.9150390625, -1055.56494140625, 482.902679443359, -0.00916569028049707
0.0014322917413665, 5133.798828125, -10140.9677734375, 4849.8076171875, 609.376647949219, -1035.90368652344, 422.693450927734, -0.00305523001588881
0.00156250008149073, 5529.658203125, -10104.046875, 4440.48876953125, 647.386047363281, -1008.86938476563, 358.797912597656, -0.00305523001588881
0.00169270842161495, 5925.51708984375, -10054.8193359375, 4006.36279296875, 685.3955078125, -986.75048828125, 293.673645019531, -0.00611046003177762
0.00182291676173918, 6296.63525390625, -9944.0556640625, 3535.02587890625, 725.857116699219, -963.402709960938, 231.006881713867, -0.00611046003177762
0.00195312510186341, 6630.6416015625, -9808.6787109375, 3038.8818359375, 763.866516113281, -938.826110839844, 165.882598876953, -0.00611046003177762
0.00208333344198763, 6964.6474609375, -9660.9951171875, 2517.9306640625, 801.875915527344, -915.478332519531, 103.215843200684, -0.00916569028049707
0.00221354178211186, 7286.283203125, -9488.697265625, 2009.38317871094, 841.111450195313, -890.901733398438, 41.7778396606445, -0.0122209200635552
0.00234375012223609, 7595.54833984375, -9316.3994140625, 1500.83557128906, 881.573059082031, -870.011596679688, -19.6601600646973, -0.00916569028049707
0.00247395846236032, 7867.70166015625, -9119.4873046875, 992.287963867188, 920.80859375, -847.892700195313, -78.6406402587891, -0.00305523001588881
0.00260416680248454, 8127.48388671875, -8910.2685546875, 483.740386962891, 957.591918945313, -825.773742675781, -131.477325439453, 0.00611046003177762
0.00273437514260877, 8362.525390625, -8664.1279296875, -24.8071994781494, 991.922973632813, -801.197143554688, -181.856475830078, 0.0213866103440523
0.002864583482733, 8597.56640625, -8405.6806640625, -520.951171875, 1023.80181884766, -774.162902832031, -232.235641479492, 0.0366627611219883
0.00299479182285722, 8832.6083984375, -8159.541015625, -1029.49877929688, 1053.228515625, -747.128601074219, -282.614807128906, 0.0549941398203373
0.00312500016298145, 9080.0205078125, -7888.787109375, -1500.83557128906, 1082.65515136719, -721.323181152344, -332.993957519531, 0.0733255222439766
0.00325520850310568, 9290.3203125, -7581.1123046875, -1984.57592773438, 1108.40344238281, -695.517761230469, -379.686828613281, 0.0855464413762093
0.0033854168432299, 9463.5087890625, -7261.1298828125, -2455.91284179688, 1123.11669921875, -663.568176269531, -423.922210693359, 0.0886016711592674
0.00351562518335413, 9636.697265625, -6928.84130859375, -2914.84594726563, 1132.92565917969, -621.787963867188, -470.615081787109, 0.0886016711592674
0.00364583352347836, 9772.7734375, -6584.2451171875, -3348.97192382813, 1134.15173339844, -582.465393066406, -516.079223632813, 0.0855464413762093
0.00377604186360259, 9908.8505859375, -6239.64892578125, -3807.90502929688, 1132.92565917969, -538.2275390625, -557.857055664063, 0.0794359818100929
0.00390625020372681, 9995.4443359375, -5882.74609375, -4242.03125, 1126.79504394531, -492.760833740234, -600.863647460938, 0.0733255222439766
0.00403645854385104, 10044.9267578125, -5488.921875, -4676.1572265625, 1116.98620605469, -443.607635498047, -643.870239257813, 0.0672150626778603
0.00416666688397527, 10032.556640625, -5082.791015625, -5097.87939453125, 1101.04675292969, -385.852600097656, -688.105590820313, 0.0611045993864536
0.00429687522409949, 10032.556640625, -4664.35302734375, -5532.00537109375, 1080.20288085938, -323.182281494141, -731.112182617188, 0.0549941398203373
0.00442708356422372, 9983.07421875, -4245.9150390625, -5941.32421875, 1059.35900878906, -261.740783691406, -771.661254882813, 0.0549941398203373
0.00455729190434795, 9896.4794921875, -3790.55615234375, -6325.8359375, 1037.2890625, -201.528121948242, -812.210388183594, 0.048883680254221
0.00468750024447218, 9772.7734375, -3298.27612304688, -6685.5400390625, 1018.89739990234, -143.773101806641, -847.844421386719, 0.0549941398203373
0.0048177085845964, 9649.0673828125, -2805.99609375, -7020.4375, 994.375183105469, -84.7892684936523, -881.020935058594, 0.0549941398203373
0.00494791692472063, 9500.62109375, -2276.794921875, -7367.73828125, 971.0791015625, -27.0342597961426, -919.112487792969, 0.0519389100372791
0.00507812526484486, 9327.4326171875, -1784.51501464844, -7665.4248046875, 950.235229492188, 29.4919204711914, -955.975280761719, 0.0519389100372791
0.00520833360496908, 9129.5029296875, -1267.62097167969, -7950.70751953125, 928.165283203125, 84.7892684936523, -991.609313964844, 0.0458284504711628
0.00533854194509331, 8919.2021484375, -738.419982910156, -8198.779296875, 906.095275878906, 135.171295166016, -1023.55706787109, 0.0336075313389301
0.00546875028521754, 8733.6435546875, -196.912002563477, -8446.8515625, 884.025268554688, 180.638000488281, -1054.27612304688, 0.0152761498466134
0.00559895862534177, 8486.2314453125, 307.675018310547, -8694.923828125, 859.503112792969, 224.875885009766, -1080.080078125, -0.00916569028049707
0.00572916696546599, 8238.8193359375, 836.876037597656, -8918.1884765625, 833.754760742188, 265.427276611328, -1107.11279296875, -0.0366627611219883
0.00585937530559022, 7954.29541015625, 1353.77001953125, -9166.259765625, 809.232604980469, 307.207489013672, -1132.91674804688, -0.0580493696033955
0.00598958364571445, 7669.77197265625, 1821.43603515625, -9377.12109375, 782.258178710938, 346.530059814453, -1155.03442382813, -0.0824912115931511
0.00611979198583867, 7360.5068359375, 2289.10205078125, -9575.5791015625, 751.605407714844, 385.852600097656, -1167.32202148438, -0.0977673605084419
0.0062500003259629, 7014.1298828125, 2756.76806640625, -9761.6328125, 718.500427246094, 423.946350097656, -1178.380859375, -0.109988279640675
0.00638020866608713, 6692.49462890625, 3199.82006835938, -9898.072265625, 679.264953613281, 462.040069580078, -1177.15209960938, -0.119153968989849
0.00651041700621136, 6333.7470703125, 3630.56494140625, -10046.916015625, 636.35107421875, 500.1337890625, -1177.15209960938, -0.119153968989849
0.00664062534633558, 5974.99951171875, 4049.00317382813, -10133.7412109375, 590.984985351563, 538.2275390625, -1169.77954101563, -0.119153968989849
0.00677083368645981, 5591.51123046875, 4492.05517578125, -10195.7587890625, 541.940612792969, 577.550109863281, -1157.49194335938, -0.122209198772907
0.00690104202658404, 5183.28125, 4910.4931640625, -10195.7587890625, 485.53955078125, 618.101501464844, -1142.74682617188, -0.122209198772907
0.00703125036670826, 4787.421875, 5316.6240234375, -10170.9521484375, 423.007934570313, 657.424011230469, -1119.400390625, -0.125264436006546
0.00716145870683249, 4342.08056640625, 5735.06201171875, -10133.7412109375, 356.798004150391, 696.74658203125, -1094.8251953125, -0.131374895572662
0.00729166704695672, 3909.10961914063, 6104.27197265625, -10059.3193359375, 291.814178466797, 737.297973632813, -1072.70751953125, -0.137485355138779
0.00742187538708095, 3451.39721679688, 6461.17529296875, -9972.494140625, 229.282562255859, 774.162902832031, -1051.81860351563, -0.140540584921837
0.00755208372720517, 2968.94384765625, 6793.4638671875, -9836.0546875, 169.203170776367, 809.798950195313, -1027.24340820313, -0.143595814704895
0.0076822920673294, 2449.37866210938, 7125.7529296875, -9674.8076171875, 106.671569824219, 846.663879394531, -1001.43939208984, -0.149706274271011
0.00781250040745363, 1929.81359863281, 7458.0419921875, -9513.560546875, 44.1399612426758, 879.84228515625, -975.635437011719, -0.149706274271011
0.00794270874757785, 1422.61901855469, 7753.41015625, -9339.91015625, -15.9394302368164, 915.478332519531, -949.831481933594, -0.146651044487953
0.00807291708770208, 878.312561035156, 8011.85693359375, -9141.453125, -71.1143798828125, 948.65673828125, -925.256286621094, -0.131374895572662
0.00820312542782631, 371.117980957031, 8257.9970703125, -8930.591796875, -121.384887695313, 978.148681640625, -895.766052246094, -0.116098739206791
0.00833333376795053, -160.817794799805, 8491.830078125, -8670.1162109375, -170.429290771484, 1006.41174316406, -867.504577636719, -0.0977673605084419
0.00846354210807476, -680.382995605469, 8725.6630859375, -8409.640625, -214.569244384766, 1030.98840332031, -836.785583496094, -0.0702702924609184
0.00859375044819899, -1187.57763671875, 8984.1103515625, -8136.76123046875, -257.483093261719, 1053.10729980469, -807.295349121094, -0.0458284504711628
0.00872395878832322, -1657.66040039063, 9205.6357421875, -7814.26806640625, -301.623046875, 1073.99743652344, -776.576293945313, -0.0244418401271105
0.00885416712844744, -2140.11376953125, 9414.85546875, -7504.177734375, -342.084686279297, 1089.97216796875, -745.857299804688, -0.00916569028049707
0.00898437546857167, -2610.19653320313, 9611.767578125, -7181.68408203125, -380.094085693359, 1097.34521484375, -710.223266601563, 0.00305523001588881
0.0091145838086959, -3067.90869140625, 9784.0654296875, -6821.97998046875, -419.329620361328, 1101.03161621094, -670.902954101563, 0.00916569028049707
0.00924479214882012, -3500.87963867188, 9919.4423828125, -6474.67919921875, -457.339019775391, 1096.11633300781, -629.125122070313, 0.00916569028049707
0.00937500048894435, -3909.10961914063, 10005.5908203125, -6114.974609375, -492.896209716797, 1087.51452636719, -584.889770507813, 0.00916569028049707
0.00950520882906858, -4342.08056640625, 10067.1259765625, -5742.86669921875, -529.679504394531, 1072.7685546875, -535.739379882813, 0.00611046003177762
0.00963541716919281, -4775.05126953125, 10116.3544921875, -5333.5478515625, -568.9150390625, 1058.02258300781, -482.902679443359, 0.00305523001588881
0.00976562550931703, -5195.65185546875, 10079.43359375, -4911.82568359375, -610.602783203125, 1038.361328125, -421.464691162109, 0
0.00989583384944126, -5591.51123046875, 10042.51171875, -4514.91015625, -647.386047363281, 1010.09826660156, -357.569152832031, -0.00305523001588881
0.0100260421895655, -5987.3701171875, 9980.9775390625, -4068.38061523438, -687.847717285156, 987.979309082031, -293.673645019531, 0
0.0101562505296897, -6358.48828125, 9894.828125, -3609.44750976563, -727.083190917969, 967.089172363281, -232.235641479492, 0
0.0102864588698139, -6704.865234375, 9759.451171875, -3125.70703125, -763.866516113281, 942.512573242188, -172.026397705078, 0.00611046003177762
0.0104166672099382, -7038.87109375, 9587.1533203125, -2617.15942382813, -801.875915527344, 919.164794921875, -108.130882263184, 0.00611046003177762
0.0105468755500624, -7360.5068359375, 9427.162109375, -2108.61206054688, -841.111450195313, 893.359375, -43.0065994262695, 0.00916569028049707
0.0106770838901866, -7669.77197265625, 9254.8642578125, -1600.06433105469, -882.799194335938, 871.240478515625, 19.6601600646973, 0.00611046003177762
0.0108072922303108, -7929.55419921875, 9045.6455078125, -1103.92041015625, -922.034729003906, 850.350341796875, 77.4118804931641, 0
0.0109375005704351, -8201.7080078125, 8836.42578125, -582.969177246094, -958.817993164063, 829.460266113281, 130.248565673828, -0.0122209200635552
0.0110677089105593, -8436.7490234375, 8614.900390625, -49.6143989562988, -994.375183105469, 806.112487792969, 183.085235595703, -0.0244418401271105
0.0111979172506835, -8659.419921875, 8344.146484375, 458.933197021484, -1025.02795410156, 779.078186035156, 234.693161010742, -0.0397179909050465
0.0113281255908078, -8919.2021484375, 8085.69921875, 967.480773925781, -1053.228515625, 750.815124511719, 285.072326660156, -0.0580493696033955
0.011458333930932, -9154.244140625, 7827.251953125, 1463.62475585938, -1083.88122558594, 723.780883789063, 335.451477050781, -0.0702702924609184
0.0115885422710562, -9352.173828125, 7519.5771484375, 1922.55798339844, -1108.40344238281, 697.975402832031, 380.915588378906, -0.0794359818100929
0.0117187506111804, -9537.732421875, 7187.2880859375, 2393.89477539063, -1125.56896972656, 663.568176269531, 426.379730224609, -0.0916569009423256
0.0118489589513047, -9698.5498046875, 6854.9990234375, 2865.2314453125, -1134.15173339844, 624.24560546875, 474.301361083984, -0.0947121307253838
0.0119791672914289, -9846.9970703125, 6522.7099609375, 3286.95385742188, -1135.37780761719, 583.694213867188, 519.765502929688, -0.0916569009423256
0.0121093756315531, -9983.07421875, 6178.1142578125, 3745.88720703125, -1134.15173339844, 540.685180664063, 561.543334960938, -0.0886016711592674
0.0122395839716773, -10057.2978515625, 5808.904296875, 4167.609375, -1129.24731445313, 495.218475341797, 603.321166992188, -0.0763807520270348
0.0123697923118016, -10131.521484375, 5427.38720703125, 4638.9462890625, -1120.66455078125, 446.065277099609, 646.327758789063, -0.0702702924609184
0.0125000006519258, -10131.521484375, 5008.94921875, 5048.26513671875, -1105.951171875, 389.539093017578, 690.563110351563, -0.0611045993864536
0.01263020899205, -10106.7802734375, 4615.125, 5469.9873046875, -1083.88122558594, 328.097595214844, 731.112182617188, -0.0611045993864536
0.0127604173321743, -10069.66796875, 4172.0732421875, 5891.7099609375, -1061.81127929688, 265.427276611328, 774.118774414063, -0.0580493696033955
0.0128906256722985, -9983.07421875, 3716.71411132813, 6263.81787109375, -1040.96740722656, 205.214599609375, 812.210388183594, -0.0580493696033955
0.0130208340124227, -9859.3681640625, 3249.04809570313, 6611.11865234375, -1017.67126464844, 146.230773925781, 849.073181152344, -0.0611045993864536
0.0131510423525469, -9723.291015625, 2732.15405273438, 6970.8232421875, -991.922973632813, 86.0180969238281, 881.020935058594, -0.0611045993864536
0.0132812506926712, -9574.84375, 2227.56713867188, 7318.1240234375, -968.626892089844, 28.263090133667, 916.654968261719, -0.0580493696033955
0.0134114590327954, -9401.65625, 1722.97998046875, 7615.81005859375, -949.009155273438, -28.263090133667, 954.746520996094, -0.0580493696033955
0.0135416673729196, -9216.0966796875, 1193.77905273438, 7901.09326171875, -930.617492675781, -82.3316116333008, 989.151794433594, -0.048883680254221
0.0136718757130438, -9005.796875, 664.578002929688, 8149.1650390625, -908.547485351563, -130.255981445313, 1023.55706787109, -0.0397179909050465
0.0138020840531681, -8783.1259765625, 147.684005737305, 8372.4296875, -886.4775390625, -176.951522827148, 1054.27612304688, -0.0183313805609941
0.0139322923932923, -8560.455078125, -393.824005126953, 8632.9052734375, -860.729187011719, -221.189392089844, 1078.85131835938, 0.00305523001588881
0.0140625007334165, -8300.6728515625, -898.411010742188, 8856.169921875, -833.754760742188, -261.740783691406, 1104.6552734375, 0.0305522996932268
0.0141927090735408, -8028.51904296875, -1402.998046875, 9104.2421875, -809.232604980469, -303.52099609375, 1130.45922851563, 0.0519389100372791
0.014322917413665, -7756.3662109375, -1882.97106933594, 9315.103515625, -784.710388183594, -344.072387695313, 1152.57690429688, 0.0733255222439766
0.0144531257537892, -7434.73046875, -2350.63696289063, 9501.1572265625, -751.605407714844, -380.937286376953, 1167.32202148438, 0.0916569009423256
0.0145833340939134, -7100.72412109375, -2818.30297851563, 9687.2109375, -716.048217773438, -421.488677978516, 1175.92333984375, 0.1008225902915
0.0147135424340377, -6766.71826171875, -3249.04809570313, 9836.0546875, -678.038818359375, -459.582397460938, 1177.15209960938, 0.109988279640675
0.0148437507741619, -6395.60009765625, -3692.10009765625, 9960.0908203125, -633.898864746094, -497.676147460938, 1175.92333984375, 0.109988279640675
0.0149739591142861, -6012.111328125, -4110.5380859375, 10059.3193359375, -588.532775878906, -535.769897460938, 1164.86450195313, 0.113043509423733
0.0151041674544103, -5678.10546875, -4541.283203125, 10121.3369140625, -538.262268066406, -573.863586425781, 1153.8056640625, 0.113043509423733
0.0152343757945346, -5269.87548828125, -4959.72119140625, 10133.7412109375, -485.53955078125, -611.957336425781, 1139.060546875, 0.116098739206791
0.0153645841346588, -4849.27490234375, -5378.1591796875, 10096.5302734375, -424.234039306641, -653.737548828125, 1119.400390625, 0.119153968989849
0.015494792474783, -4441.04541015625, -5784.2900390625, 10059.3193359375, -359.250213623047, -693.060119628906, 1097.28271484375, 0.119153968989849
0.0156250008149073, -3995.70361328125, -6165.80712890625, 9984.8974609375, -294.266387939453, -734.84033203125, 1075.1650390625, 0.131374895572662
0.0157552091550315, -3513.25024414063, -6498.09619140625, 9873.265625, -230.508682250977, -771.705200195313, 1049.36108398438, 0.134430125355721
0.0158854174951557, -3030.796875, -6854.9990234375, 9749.2294921875, -167.977066040039, -806.112487792969, 1026.0146484375, 0.140540584921837
0.0160156258352799, -2535.97290039063, -7199.59521484375, 9625.193359375, -105.445457458496, -840.519714355469, 998.981872558594, 0.143595814704895
0.0161458341754042, -2004.037109375, -7507.27001953125, 9439.1396484375, -42.9138488769531, -877.384582519531, 974.406677246094, 0.140540584921837
0.0162760425155284, -1496.84252929688, -7790.3310546875, 9253.0849609375, 17.1655387878418, -913.020690917969, 946.145202636719, 0.137485355138779
0.0164062508556526, -977.277404785156, -8036.47119140625, 9079.4345703125, 71.1143798828125, -946.199096679688, 921.570007324219, 0.128319665789604
0.0165364591957768, -445.341583251953, -8307.2255859375, 8856.169921875, 122.611000061035, -976.919860839844, 896.994812011719, 0.113043509423733
0.0166666675359011, 98.9647979736328, -8541.05859375, 8595.6943359375, 171.655395507813, -1006.41174316406, 868.733337402344, 0.0886016711592674
0.0167968758760253, 606.159362792969, -8799.5048828125, 8335.21875, 214.569244384766, -1027.30187988281, 836.785583496094, 0.0641598328948021
0.0169270842161495, 1125.724609375, -9033.337890625, 8062.33984375, 259.935302734375, -1049.42077636719, 804.837829589844, 0.0427732206881046
0.0170572925562738, 1595.80737304688, -9267.1708984375, 7764.6533203125, 301.623046875, -1070.31091308594, 775.347534179688, 0.0183313805609941
0.017187500896398, 2053.51953125, -9476.3896484375, 7442.15966796875, 342.084686279297, -1086.28564453125, 744.628540039063, 0.00611046003177762
0.0173177092365222, 2535.97290039063, -9673.3017578125, 7094.85888671875, 380.094085693359, -1093.65869140625, 708.994506835938, -0.00611046003177762
0.0174479175766464, 2993.68505859375, -9833.29296875, 6747.55810546875, 418.103515625, -1096.11633300781, 668.445434570313, -0.0152761498466134
0.0175781259167707, 3414.28564453125, -9968.669921875, 6400.25732421875, 456.112915039063, -1091.20104980469, 626.667602539063, -0.0152761498466134
